 Si Density=2.33 Thickness=1000. microns
 Photon Energy (eV), Transmission
    10.000      0.00000    
    309.90      0.00000    
    609.80      0.00000    
    909.70      0.00000    
    1209.6      0.00000    
    1509.5      0.00000    
    1809.4      0.20083E-31
    2109.3      0.00000    
    2409.2      0.00000    
    2709.1      0.00000    
    3009.0      0.00000    
    3308.9      0.00000    
    3608.8      0.00000    
    3908.7      0.00000    
    4208.6      0.68013E-39
    4508.5      0.50754E-32
    4808.4      0.11690E-26
    5108.3      0.20421E-22
    5408.2      0.51230E-19
    5708.1      0.29185E-16
    6008.0      0.52673E-14
    6307.9      0.38594E-12
    6607.8      0.13862E-10
    6907.7      0.28090E-09
    7207.6      0.35831E-08
    7507.5      0.31353E-07
    7807.4      0.20119E-06
    8107.3      0.99891E-06
    8407.2      0.40042E-05
    8707.1      0.13414E-04
    9007.0      0.38623E-04
    9306.9      0.97811E-04
    9606.8      0.22196E-03
    9906.7      0.45857E-03
    10207.      0.87382E-03
    10507.      0.15526E-02
    10806.      0.25962E-02
    11106.      0.41171E-02
    11406.      0.62340E-02
    11706.      0.90630E-02
    12006.      0.12713E-01
    12306.      0.17276E-01
    12606.      0.22829E-01
    12906.      0.29424E-01
    13206.      0.37091E-01
    13505.      0.45840E-01
    13805.      0.55653E-01
    14105.      0.66500E-01
    14405.      0.78326E-01
    14705.      0.91074E-01
    15005.      0.10466    
    15305.      0.11903    
    15605.      0.13406    
    15905.      0.14970    
    16205.      0.16582    
    16504.      0.18237    
    16804.      0.19924    
    17104.      0.21635    
    17404.      0.23364    
    17704.      0.25103    
    18004.      0.26845    
    18304.      0.28585    
    18604.      0.30317    
    18904.      0.32037    
    19204.      0.33739    
    19504.      0.35422    
    19803.      0.37081    
    20103.      0.38714    
    20403.      0.40319    
    20703.      0.41892    
    21003.      0.43432    
    21303.      0.44938    
    21603.      0.46408    
    21903.      0.47842    
    22203.      0.49239    
    22502.      0.50599    
    22802.      0.51923    
    23102.      0.53210    
    23402.      0.54460    
    23702.      0.55674    
    24002.      0.56853    
    24302.      0.57996    
    24602.      0.59105    
    24902.      0.60179    
    25202.      0.61221    
    25501.      0.62230    
    25801.      0.63208    
    26101.      0.64154    
    26401.      0.65071    
    26701.      0.65958    
    27001.      0.66817    
    27301.      0.67648    
    27601.      0.68453    
    27901.      0.69231    
    28201.      0.69985    
    28500.      0.70714    
    28800.      0.71419    
    29100.      0.72102    
    29400.      0.72763    
    29700.      0.73402    
    30000.      0.74021    
