C22H10N2O5 Density=1.43 Thickness=1000. microns
 Photon Energy (eV), Transmission
    10.000      0.00000    
    309.90      0.00000    
    609.80      0.00000    
    909.70      0.00000    
    1209.6      0.00000    
    1509.5      0.00000    
    1809.4      0.46867E-32
    2109.3      0.16385E-20
    2409.2      0.76164E-14
    2709.1      0.97989E-10
    3009.0      0.45702E-07
    3308.9      0.29355E-05
    3608.8      0.54291E-04
    3908.7      0.44562E-03
    4208.6      0.21074E-02
    4508.5      0.67803E-02
    4808.4      0.16582E-01
    5108.3      0.33239E-01
    5408.2      0.57528E-01
    5708.1      0.89159E-01
    6008.0      0.12703    
    6307.9      0.16959    
    6607.8      0.21517    
    6907.7      0.26221    
    7207.6      0.30941    
    7507.5      0.35573    
    7807.4      0.40043    
    8107.3      0.44301    
    8407.2      0.48317    
    8707.1      0.52073    
    9007.0      0.55565    
    9306.9      0.58796    
    9606.8      0.61775    
    9906.7      0.64514    
    10207.      0.67031    
    10507.      0.69339    
    10806.      0.71453    
    11106.      0.73388    
    11406.      0.75161    
    11706.      0.76783    
    12006.      0.78268    
    12306.      0.79629    
    12606.      0.80876    
    12906.      0.82021    
    13206.      0.83071    
    13505.      0.84036    
    13805.      0.84923    
    14105.      0.85739    
    14405.      0.86491    
    14705.      0.87184    
    15005.      0.87823    
    15305.      0.88417    
    15605.      0.88966    
    15905.      0.89474    
    16205.      0.89945    
    16504.      0.90382    
    16804.      0.90787    
    17104.      0.91164    
    17404.      0.91514    
    17704.      0.91840    
    18004.      0.92144    
    18304.      0.92427    
    18604.      0.92691    
    18904.      0.92937    
    19204.      0.93167    
    19504.      0.93383    
    19803.      0.93583    
    20103.      0.93762    
    20403.      0.93945    
    20703.      0.94118    
    21003.      0.94279    
    21303.      0.94431    
    21603.      0.94574    
    21903.      0.94709    
    22203.      0.94836    
    22502.      0.94956    
    22802.      0.95069    
    23102.      0.95175    
    23402.      0.95276    
    23702.      0.95371    
    24002.      0.95461    
    24302.      0.95546    
    24602.      0.95627    
    24902.      0.95704    
    25202.      0.95776    
    25501.      0.95845    
    25801.      0.95910    
    26101.      0.95972    
    26401.      0.96032    
    26701.      0.96088    
    27001.      0.96141    
    27301.      0.96192    
    27601.      0.96240    
    27901.      0.96286    
    28201.      0.96330    
    28500.      0.96372    
    28800.      0.96412    
    29100.      0.96450    
    29400.      0.96487    
    29700.      0.96522    
    30000.      0.96555   
